freq    vd-db   vd-ph   id-db   id-ph
1.00000000000000e+001   -4.97381612383920e-003    -1.48276299889840e-004    -1.45101634231018e+002    2.58862423978114e-001
1.02329299228075e+001   -4.97381612521222e-003    -1.51730098598577e-004    -1.45101630053119e+002    2.64892019480012e-001
1.04712854805090e+001   -4.97381612664603e-003    -1.55264346613975e-004    -1.45101625647780e+002    2.71062055274687e-001
1.07151930523761e+001   -4.97381612814835e-003    -1.58880917841112e-004    -1.45101621066813e+002    2.77375804109327e-001
1.09647819614319e+001   -4.97381612972207e-003    -1.62581729833924e-004    -1.45101616269958e+002    2.83836612071953e-001
1.12201845430196e+001   -4.97381613137105e-003    -1.66368744811917e-004    -1.45101611247039e+002    2.90447904111156e-001
1.14815362149688e+001   -4.97381613309625e-003    -1.70243970700557e-004    -1.45101605987404e+002    2.97213184916570e-001
1.17489755493953e+001   -4.97381613490540e-003    -1.74209462195906e-004    -1.45101600449351e+002    3.04136039705660e-001
1.20226443461741e+001   -4.97381613679657e-003    -1.78267321854043e-004    -1.45101594682291e+002    3.11220140371598e-001
1.23026877081238e+001   -4.97381613877843e-003    -1.82419701205873e-004    -1.45101588643445e+002    3.18469241088060e-001
1.25892541179417e+001   -4.97381614085099e-003    -1.86668801897889e-004    -1.45101582320007e+002    3.25887184494675e-001
1.28824955169313e+001   -4.97381614302487e-003    -1.91016876859522e-004    -1.45101575668018e+002    3.33477901515615e-001
1.31825673855641e+001   -4.97381614529909e-003    -1.95466231497671e-004    -1.45101568734527e+002    3.41245418100987e-001
1.34896288259165e+001   -4.97381614768138e-003    -2.00019224919057e-004    -1.45101561474282e+002    3.49193850403541e-001
1.38038426460288e+001   -4.97381615017463e-003    -2.04678271181060e-004    -1.45101553871885e+002    3.57327411561979e-001
1.41253754462275e+001   -4.97381615278752e-003    -2.09445840571677e-004    -1.45101545880668e+002    3.65650411499994e-001
1.44543977074593e+001   -4.97381615552295e-003    -2.14324460919304e-004    -1.45101537544836e+002    3.74167264318789e-001
1.47910838816821e+001   -4.97381615838672e-003    -2.19316718933026e-004    -1.45101528816166e+002    3.82882483004691e-001
1.51356124843621e+001   -4.97381616138653e-003    -2.24425261574121e-004    -1.45101519645600e+002    3.91800685488803e-001
1.54881661891248e+001   -4.97381616452625e-003    -2.29652797459518e-004    -1.45101510074844e+002    4.00926601314545e-001
1.58489319246111e+001   -4.97381616781456e-003    -2.35002098297937e-004    -1.45101500053055e+002    4.10265065965719e-001
1.62181009735893e+001   -4.97381617125725e-003    -2.40476000359488e-004    -1.45101489528434e+002    4.19821027356385e-001
1.65958690743756e+001   -4.97381617486494e-003    -2.46077405979500e-004    -1.45101478539813e+002    4.29599552975157e-001
1.69824365246174e+001   -4.97381617863858e-003    -2.51809285097376e-004    -1.45101467002801e+002    4.39605822257619e-001
1.73780082874937e+001   -4.97381618259362e-003    -2.57674676831293e-004    -1.45101454954082e+002    4.49845141274497e-001
1.77827941003892e+001   -4.97381618673296e-003    -2.63676691089586e-004    -1.45101442307017e+002    4.60322933298675e-001
1.81970085860998e+001   -4.97381619106720e-003    -2.69818510219661e-004    -1.45101429095936e+002    4.71044754190035e-001
1.86208713666287e+001   -4.97381619560599e-003    -2.76103390695316e-004    -1.45101415231736e+002    4.82016282521039e-001
1.90546071796325e+001   -4.97381620035899e-003    -2.82534664843369e-004    -1.45101400746167e+002    4.93243335672204e-001
1.94984459975804e+001   -4.97381620533584e-003    -2.89115742610501e-004    -1.45101385547422e+002    5.04731859490349e-001
1.99526231496888e+001   -4.97381621054812e-003    -2.95850113371253e-004    -1.45101369664423e+002    5.16487945155999e-001
2.04173794466953e+001   -4.97381621600355e-003    -3.02741347778143e-004    -1.45101353002399e+002    5.28517818348613e-001
2.08929613085404e+001   -4.97381622171853e-003    -3.09793099654869e-004    -1.45101335556626e+002    5.40827854994335e-001
2.13796208950223e+001   -4.97381622770175e-003    -3.17009107933615e-004    -1.45101317320718e+002    5.53424579428175e-001
2.18776162394955e+001   -4.97381623396865e-003    -3.24393198637485e-004    -1.45101298194917e+002    5.66314661884132e-001
2.23872113856834e+001   -4.97381624052983e-003    -3.31949286909110e-004    -1.45101278169273e+002    5.79504933523851e-001
2.29086765276777e+001   -4.97381624739978e-003    -3.39681379086507e-004    -1.45101257231932e+002    5.93002384497313e-001
2.34422881531992e+001   -4.97381625459296e-003    -3.47593574827293e-004    -1.45101235277410e+002    6.06814161209946e-001
2.39883291901949e+001   -4.97381626212577e-003    -3.55690069282379e-004    -1.45101212289761e+002    6.20947582456505e-001
2.45470891568503e+001   -4.97381627001463e-003    -3.63975155320294e-004    -1.45101188220308e+002    6.35410135078137e-001
2.51188643150958e+001   -4.97381627827304e-003    -3.72453225803320e-004    -1.45101163018078e+002    6.50209479935696e-001
2.57039578276886e+001   -4.97381628692415e-003    -3.81128775916646e-004    -1.45101136629701e+002    6.65353455931718e-001
2.63026799189538e+001   -4.97381629597858e-003    -3.90006405551774e-004    -1.45101108999288e+002    6.80850084131033e-001
2.69153480392691e+001   -4.97381630546335e-003    -3.99090821745446e-004    -1.45101080068322e+002    6.96707571970576e-001
2.75422870333816e+001   -4.97381631539486e-003    -4.08386841175371e-004    -1.45101049775528e+002    7.12934317581251e-001
2.81838293126445e+001   -4.97381632579144e-003    -4.17899392714097e-004    -1.45101018056744e+002    7.29538914173962e-001
2.88403150312660e+001   -4.97381633668107e-003    -4.27633520042361e-004    -1.45100984814247e+002    7.46530151933622e-001
2.95120922666638e+001   -4.97381634808209e-003    -4.37594384323316e-004    -1.45100950038771e+002    7.63917033070414e-001
3.01995172040201e+001   -4.97381636002152e-003    -4.47787266939050e-004    -1.45100913626115e+002    7.81708760949520e-001
3.09029543251359e+001   -4.97381637252250e-003    -4.58217572290842e-004    -1.45100875468610e+002    7.99914752436507e-001
3.16227766016838e+001   -4.97381638561302e-003    -4.68890830664647e-004    -1.45100835546575e+002    8.18544651429378e-001
3.23593656929628e+001   -4.97381639932011e-003    -4.79812701163331e-004    -1.45100793714365e+002    8.37608314290307e-001
3.31131121482591e+001   -4.97381641367559e-003    -4.90988974707195e-004    -1.45100749944514e+002    8.57115837745807e-001
3.38844156139202e+001   -4.97381642870649e-003    -5.02425577104405e-004    -1.45100704083226e+002    8.77077540879365e-001
3.46736850452531e+001   -4.97381644444271e-003    -5.14128572192931e-004    -1.45100656063960e+002    8.97503991194199e-001
3.54813389233575e+001   -4.97381646092286e-003    -5.26104165055670e-004    -1.45100605785063e+002    9.18405998278378e-001
3.63078054770101e+001   -4.97381647818070e-003    -5.38358705310471e-004    -1.45100553140097e+002    9.39794622378932e-001
3.71535229097172e+001   -4.97381649625097e-003    -5.50898690476781e-004    -1.45100498017613e+002    9.61681180158004e-001
3.80189396320561e+001   -4.97381651517323e-003    -5.63730769420715e-004    -1.45100440300914e+002    9.84077250594187e-001
3.89045144994280e+001   -4.97381653498607e-003    -5.76861745880378e-004    -1.45100379867812e+002    1.00699468097313e+000
3.98107170553497e+001   -4.97381655573484e-003    -5.90298582073292e-004    -1.45100316559828e+002    1.03044558944819e+000
4.07380277804112e+001   -4.97381657745911e-003    -6.04048402387858e-004    -1.45100250304073e+002    1.05444238570773e+000
4.16869383470335e+001   -4.97381660021002e-003    -6.18118497160801e-004    -1.45100180899207e+002    1.07899775213272e+000
4.26579518801592e+001   -4.97381662403097e-003    -6.32516326542603e-004    -1.45100108228896e+002    1.10412467581868e+000
4.36515832240165e+001   -4.97381664897601e-003    -6.47249524452971e-004    -1.45100032169894e+002    1.12983644466386e+000
4.46683592150962e+001   -4.97381667509434e-003    -6.62325902628449e-004    -1.45099952500113e+002    1.15614664207789e+000
4.57088189614874e+001   -4.97381670244482e-003    -6.77753454764294e-004    -1.45099869050961e+002    1.18306917337842e+000
4.67735141287197e+001   -4.97381673108535e-003    -6.93540360752848e-004    -1.45099781706979e+002    1.21061827387517e+000
4.78630092322638e+001   -4.97381676107382e-003    -7.09694991020622e-004    -1.45099690252802e+002    1.23880849540734e+000
4.89778819368445e+001   -4.97381679247583e-003    -7.26225910966405e-004    -1.45099594464371e+002    1.26765472570743e+000
5.01187233627271e+001   -4.97381682535893e-003    -7.43141885502753e-004    -1.45099494169590e+002    1.29717220513563e+000
5.12861383991364e+001   -4.97381685979164e-003    -7.60451883703264e-004    -1.45099389186830e+002    1.32737652619346e+000
5.24807460249772e+001   -4.97381689584630e-003    -7.78165083558096e-004    -1.45099279202363e+002    1.35828362239784e+000
5.37031796370252e+001   -4.97381693360205e-003    -7.96290876840260e-004    -1.45099164075195e+002    1.38990982309315e+000
5.49540873857624e+001   -4.97381697313511e-003    -8.14838874085262e-004    -1.45099043531276e+002    1.42227181509303e+000
5.62341325190348e+001   -4.97381701453135e-003    -8.33818909686739e-004    -1.45098917285112e+002    1.45538666936904e+000
5.75439937337156e+001   -4.97381705787954e-003    -8.53241047110780e-004    -1.45098785100275e+002    1.48927186017436e+000
5.88843655355588e+001   -4.97381710326941e-003    -8.73115584231712e-004    -1.45098646697265e+002    1.52394525899286e+000
6.02559586074357e+001   -4.97381715080036e-003    -8.93453058792169e-004    -1.45098501752917e+002    1.55942514295492e+000
6.16595001861481e+001   -4.97381720056886e-003    -9.14264253990338e-004    -1.45098350021891e+002    1.59573022588741e+000
6.30957344480192e+001   -4.97381725268491e-003    -9.35560204197362e-004    -1.45098191122354e+002    1.63287962940392e+000
6.45654229034654e+001   -4.97381730725562e-003    -9.57352200807903e-004    -1.45098024718454e+002    1.67089292517724e+000
6.60693448007595e+001   -4.97381736439967e-003    -9.79651798226987e-004    -1.45097850519600e+002    1.70979014599788e+000
6.76082975391980e+001   -4.97381742423765e-003    -1.00247081999631e-003    -1.45097668096608e+002    1.74959176027119e+000
6.91830970918935e+001   -4.97381748689212e-003    -1.02582136506323e-003    -1.45097477094565e+002    1.79031872340822e+000
7.07945784384136e+001   -4.97381755250202e-003    -1.04971581419580e-003    -1.45097277079427e+002    1.83199245819329e+000
7.24435960074988e+001   -4.97381762120533e-003    -1.07416683654718e-003    -1.45097067659244e+002    1.87463489020510e+000
7.41310241300916e+001   -4.97381769314387e-003    -1.09918739637305e-003    -1.45096848391719e+002    1.91826843991612e+000
7.58577575029182e+001   -4.97381776847301e-003    -1.12479075990536e-003    -1.45096618813801e+002    1.96291603977938e+000
7.76247116628690e+001   -4.97381784735290e-003    -1.15099050238634e-003    -1.45096378410210e+002    2.00860113841735e+000
7.94328234724279e+001   -4.97381792995047e-003    -1.17780051526617e-003    -1.45096126673442e+002    2.05534772563141e+000
8.12830516164097e+001   -4.97381801644037e-003    -1.20523501356854e-003    -1.45095863102701e+002    2.10318034483160e+000
8.31763771102669e+001   -4.97381810700688e-003    -1.23330854342751e-003    -1.45095587141773e+002    2.15212409056383e+000
8.51138038202374e+001   -4.97381820184203e-003    -1.26203598980017e-003    -1.45095298177873e+002    2.20220461975007e+000
8.70963589956078e+001   -4.97381830114649e-003    -1.29143258435878e-003    -1.45094995631942e+002    2.25344818680146e+000
8.91250938133743e+001   -4.97381840512966e-003    -1.32151391356681e-003    -1.45094678835361e+002    2.30588162542410e+000
9.12010839355907e+001   -4.97381851401539e-003    -1.35229592694313e-003    -1.45094347120135e+002    2.35953238438382e+000
9.33254300796988e+001   -4.97381862803138e-003    -1.38379494551860e-003    -1.45093999817487e+002    2.41442854127249e+000
9.54992586021433e+001   -4.97381874741982e-003    -1.41602767048974e-003    -1.45093636195416e+002    2.47059879926232e+000
9.77237220955808e+001   -4.97381887243737e-003    -1.44901119207389e-003    -1.45093255426696e+002    2.52807249056862e+000
9.99999999999997e+001   -4.97381900334454e-003    -1.48276299857069e-003    -1.45092856770228e+002    2.58687964240366e+000
1.02329299228075e+002   -4.97381914042116e-003    -1.51730098563462e-003    -1.45092439386426e+002    2.64705093907279e+000
1.04712854805090e+002   -4.97381928395958e-003    -1.55264346576349e-003    -1.45092002335510e+002    2.70861773382295e+000
1.07151930523760e+002   -4.97381943426277e-003    -1.58880917800795e-003    -1.45091544758570e+002    2.77161211915810e+000
1.09647819614318e+002   -4.97381959164818e-003    -1.62581729790724e-003    -1.45091065662302e+002    2.83606687586300e+000
1.12201845430196e+002   -4.97381975645255e-003    -1.66368744765627e-003    -1.45090564038942e+002    2.90201552493560e+000
1.14815362149688e+002   -4.97381992902324e-003    -1.70243970650956e-003    -1.45090038833708e+002    2.96949233293883e+000
1.17489755493953e+002   -4.97382010972593e-003    -1.74209462142758e-003    -1.45089488973092e+002    3.03853233759807e+000
1.20226443461741e+002   -4.97382029894562e-003    -1.78267321797094e-003    -1.45088913240744e+002    3.10917132038666e+000
1.23026877081238e+002   -4.97382049708369e-003    -1.82419701144850e-003    -1.45088310488334e+002    3.18144589614058e+000
1.25892541179416e+002   -4.97382070455891e-003    -1.86668801832502e-003    -1.45087679389400e+002    3.25539344215764e+000
1.28824955169313e+002   -4.97382092181221e-003    -1.91016876789459e-003    -1.45087018649959e+002    3.33105219028801e+000
1.31825673855640e+002   -4.97382114930386e-003    -1.95466231422597e-003    -1.45086326883979e+002    3.40846119870065e+000
1.34896288259165e+002   -4.97382138751822e-003    -2.00019224838614e-003    -1.45085602641011e+002    3.48766037850064e+000
1.38038426460288e+002   -4.97382163695895e-003    -2.04678271094864e-003    -1.45084844372813e+002    3.56869049718705e+000
1.41253754462275e+002   -4.97382189815385e-003    -2.09445840479316e-003    -1.45084050521566e+002    3.65159323143175e+000
1.44543977074592e+002   -4.97382217165965e-003    -2.14324460820338e-003    -1.45083219425349e+002    3.73641114680418e+000
1.47910838816820e+002   -4.97382245805528e-003    -2.19316718826981e-003    -1.45082349314813e+002    3.82318771234384e+000
1.51356124843620e+002   -4.97382275794862e-003    -2.24425261460493e-003    -1.45081438400919e+002    3.91196735625524e+000
1.54881661891248e+002   -4.97382307197551e-003    -2.29652797337763e-003    -1.45080484749622e+002    4.00279542905324e+000
1.58489319246111e+002   -4.97382340080270e-003    -2.35002098167474e-003    -1.45079486369300e+002    4.09571825948462e+000
1.62181009735892e+002   -4.97382374512586e-003    -2.40476000219695e-003    -1.45078441206728e+002    4.19078317226794e+000
1.65958690743755e+002   -4.97382410567636e-003    -2.46077405829709e-003    -1.45077347082136e+002    4.28803847563313e+000
1.69824365246174e+002   -4.97382448321937e-003    -2.51809284936872e-003    -1.45076201654545e+002    4.38753346027890e+000
1.73780082874937e+002   -4.97382487855668e-003    -2.57674676659310e-003    -1.45075002538765e+002    4.48931847436884e+000
1.77827941003892e+002   -4.97382529252390e-003    -2.63676690905303e-003    -1.45073747300602e+002    4.59344494270989e+000
1.81970085860998e+002   -4.97382572600099e-003    -2.69818510022198e-003    -1.45072433269805e+002    4.69996528693979e+000
1.86208713666286e+002   -4.97382617990844e-003    -2.76103390483731e-003    -1.45071057777785e+002    4.80893306800640e+000
1.90546071796324e+002   -4.97382665520632e-003    -2.82534664616651e-003    -1.45069617879189e+002    4.92040285353321e+000
1.94984459975804e+002   -4.97382715290581e-003    -2.89115742367568e-003    -1.45068110649710e+002    5.03443039863914e+000
1.99526231496887e+002   -4.97382767406056e-003    -2.95850113110947e-003    -1.45066532967937e+002    5.15107254377331e+000
2.04173794466952e+002   -4.97382821977537e-003    -3.02741347499220e-003    -1.45064881509433e+002    5.27038722425370e+000
2.08929613085403e+002   -4.97382879120904e-003    -3.09793099355997e-003    -1.45063152922245e+002    5.39243359227759e+000
2.13796208950222e+002   -4.97382938957541e-003    -3.17009107613368e-003    -1.45061343578020e+002    5.51727188342812e+000
2.18776162394954e+002   -4.97383001614232e-003    -3.24393198294335e-003    -1.45059449807483e+002    5.64496357768765e+000
2.23872113856833e+002   -4.97383067223745e-003    -3.31949286541418e-003    -1.45057467651206e+002    5.77557125786154e+000
2.29086765276776e+002   -4.97383135925312e-003    -3.39681378692517e-003    -1.45055393033894e+002    5.90915873447348e+000
2.34422881531991e+002   -4.97383207864629e-003    -3.47593574405125e-003    -1.45053221726404e+002    6.04579103853678e+000
2.39883291901948e+002   -4.97383283194341e-003    -3.55690068830018e-003    -1.45050949247175e+002    6.18553436738272e+000
2.45470891568502e+002   -4.97383362074232e-003    -3.63975154835581e-003    -1.45048570944686e+002    6.32845615313421e+000
2.51188643150957e+002   -4.97383444671613e-003    -3.72453225283940e-003    -1.45046081928529e+002    6.47462502601490e+000
2.57039578276885e+002   -4.97383531161897e-003    -3.81128775360120e-003    -1.45043477151061e+002    6.62411088542759e+000
2.63026799189537e+002   -4.97383621728123e-003    -3.90006404955447e-003    -1.45040751307680e+002    6.77698483740231e+000
2.69153480392690e+002   -4.97383716562688e-003    -3.99090821106469e-003    -1.45037898797304e+002    6.93331916939662e+000
2.75422870333816e+002   -4.97383815866576e-003    -4.08386840490696e-003    -1.45034913893198e+002    7.09318749270241e+000
2.81838293126444e+002   -4.97383919850711e-003    -4.17899391980454e-003    -1.45031790491895e+002    7.25666454922120e+000
2.88403150312659e+002   -4.97384028735277e-003    -4.27633519256249e-003    -1.45028522313323e+002    7.42382637689200e+000
2.95120922666637e+002   -4.97384142751557e-003    -4.37594383480982e-003    -1.45025102739496e+002    7.59475017982075e+000
3.01995172040200e+002   -4.97384262141156e-003    -4.47787266036473e-003    -1.45021524863448e+002    7.76951436759036e+000
3.09029543251358e+002   -4.97384387157452e-003    -4.58217571323713e-003    -1.45017781537530e+002    7.94819859916153e+000
3.16227766016837e+002   -4.97384518065690e-003    -4.68890829628350e-003    -1.45013865241393e+002    8.13088366187353e+000
3.23593656929627e+002   -4.97384655143273e-003    -4.79812700052917e-003    -1.45009768189509e+002    8.31765156365731e+000
3.31131121482590e+002   -4.97384798681016e-003    -4.90988973517366e-003    -1.45005482138865e+002    8.50858534211035e+000
3.38844156139201e+002   -4.97384948983725e-003    -5.02425575829481e-003    -1.45000998674907e+002    8.70376932939280e+000
3.46736850452530e+002   -4.97385106369809e-003    -5.14128570826824e-003    -1.44996308839349e+002    8.90328877478583e+000
3.54813389233574e+002   -4.97385271173407e-003    -5.26104163591861e-003    -1.44991403385300e+002    9.10723007703579e+000
3.63078054770100e+002   -4.97385443743902e-003    -5.38358703741972e-003    -1.44986272703076e+002    9.31568069450583e+000
3.71535229097171e+002   -4.97385624447466e-003    -5.50898688796103e-003    -1.44980906716319e+002    9.52872901032726e+000
3.80189396320559e+002   -4.97385813667252e-003    -5.63730767619837e-003    -1.44975294926788e+002    9.74646434811000e+000
3.89045144994279e+002   -4.97386011804747e-003    -5.76861743950703e-003    -1.44969426399134e+002    9.96897692233831e+000
